Date,High,Low,Open,Close,Volume,Adj Close
2018-01-02,87.31999969482422,86.08000183105469,86.44000244140625,87.01000213623047,233300.0,83.95079803466797
2018-01-03,87.61000061035156,86.81999969482422,87.26000213623047,87.19000244140625,177700.0,84.12445831298828
2018-01-04,87.93000030517578,85.80000305175781,87.20999908447266,86.01000213623047,362900.0,82.98594665527344
2018-01-05,87.44999694824219,86.19000244140625,86.29000091552734,86.91000366210938,209200.0,83.85430145263672
2018-01-08,87.51000213623047,86.56999969482422,86.86000061035156,87.19999694824219,341200.0,84.13409423828125
2018-01-09,87.76000213623047,86.36000061035156,87.27999877929688,86.38999938964844,282000.0,83.35258483886719
2018-01-10,86.0999984741211,85.16000366210938,86.0999984741211,85.66999816894531,161400.0,82.65789031982422
2018-01-11,86.48999786376953,85.44000244140625,85.44000244140625,86.25,311600.0,83.2175064086914
2018-01-12,86.94000244140625,85.87999725341797,86.37000274658203,86.55999755859375,179400.0,83.51659393310547
2018-01-16,87.20999908447266,86.01000213623047,86.36000061035156,86.23999786376953,254000.0,83.20785522460938
2018-01-17,87.27999877929688,86.51000213623047,86.7699966430664,86.83999633789062,250400.0,83.78675079345703
2018-01-18,87.31999969482422,86.3499984741211,86.8499984741211,87.23999786376953,220800.0,84.17269134521484
2018-01-19,88.69999694824219,87.30000305175781,87.30000305175781,88.61000061035156,177500.0,85.49452209472656
2018-01-22,88.61000061035156,86.5999984741211,88.61000061035156,87.45999908447266,369900.0,84.38495635986328
2018-01-23,87.75,86.91000366210938,87.44000244140625,87.5999984741211,158800.0,84.52003479003906
2018-01-24,88.5999984741211,86.3499984741211,87.80999755859375,88.19999694824219,255000.0,85.09895324707031
2018-01-25,89.43000030517578,88.12999725341797,88.4000015258789,89.43000030517578,339100.0,86.28569793701172
2018-01-26,89.5,88.45999908447266,89.4800033569336,89.13999938964844,206300.0,86.00589752197266
2018-01-29,89.2300033569336,87.54000091552734,88.7300033569336,87.7300033569336,254300.0,84.64547729492188
2018-01-30,87.95999908447266,87.05000305175781,87.44999694824219,87.69000244140625,345000.0,84.91661834716797
2018-01-31,88.0999984741211,86.76000213623047,88.08999633789062,87.41999816894531,519100.0,84.6551513671875
2018-02-01,87.62999725341797,85.80999755859375,87.23999786376953,86.83999633789062,220800.0,84.09349060058594
2018-02-02,86.91000366210938,85.54000091552734,86.52999877929688,85.80000305175781,217000.0,83.08639526367188
2018-02-05,86.0,83.37999725341797,85.0999984741211,83.37999725341797,434200.0,80.742919921875
2018-02-06,83.88999938964844,81.41000366210938,82.37999725341797,83.79000091552734,352300.0,81.13996124267578
2018-02-07,84.91000366210938,83.7300033569336,83.80999755859375,83.8499984741211,304100.0,81.19805145263672
2018-02-08,84.81999969482422,81.36000061035156,83.86000061035156,81.37999725341797,349100.0,78.80619049072266
2018-02-09,82.58999633789062,79.97000122070312,82.08999633789062,82.16000366210938,367200.0,79.5615005493164
2018-02-12,83.44999694824219,81.58999633789062,82.55999755859375,82.5999984741211,303000.0,79.98758697509766
2018-02-13,92.31999969482422,86.30000305175781,86.75,89.72000122070312,1102000.0,86.88240051269531
2018-02-14,90.87000274658203,88.73999786376953,89.58000183105469,90.66000366210938,512100.0,87.79267883300781
2018-02-15,91.97000122070312,90.18000030517578,90.18000030517578,91.16999816894531,333300.0,88.28656005859375
2018-02-16,92.13999938964844,90.48999786376953,91.04000091552734,91.83000183105469,335500.0,88.92567443847656
2018-02-20,92.19000244140625,90.72000122070312,91.23999786376953,91.05999755859375,372000.0,88.1800308227539
2018-02-21,92.27999877929688,90.11000061035156,91.33999633789062,90.16000366210938,283200.0,87.3084945678711
2018-02-22,91.45999908447266,90.30999755859375,90.44000244140625,90.61000061035156,255300.0,87.74425506591797
2018-02-23,91.06999969482422,89.93000030517578,90.73999786376953,90.98999786376953,249400.0,88.11223602294922
2018-02-26,91.4800033569336,90.38999938964844,91.27999877929688,90.77999877929688,250300.0,87.90887451171875
2018-02-27,90.7300033569336,89.44000244140625,90.7300033569336,89.5,286500.0,86.66937255859375
2018-02-28,90.41000366210938,89.20999908447266,89.7300033569336,89.41999816894531,306900.0,86.59188079833984
2018-03-01,90.48999786376953,88.30999755859375,89.23999786376953,89.0,241900.0,86.18518829345703
2018-03-02,89.88999938964844,88.30000305175781,88.73999786376953,89.68000030517578,270600.0,86.84367370605469
2018-03-05,90.69999694824219,89.30999755859375,89.30999755859375,90.4000015258789,231200.0,87.54090881347656
2018-03-06,91.05000305175781,89.27999877929688,90.37000274658203,90.7699966430664,295800.0,87.8991928100586
2018-03-07,91.13999938964844,89.70999908447266,89.9800033569336,90.13999938964844,317500.0,87.28912353515625
2018-03-08,90.83000183105469,89.44999694824219,90.4000015258789,89.94999694824219,368000.0,87.1051254272461
2018-03-09,90.94999694824219,89.55999755859375,89.94000244140625,90.87000274658203,283100.0,87.99604034423828
2018-03-12,90.98999786376953,90.4000015258789,90.69999694824219,90.77999877929688,181100.0,87.90887451171875
2018-03-13,92.0999984741211,90.2699966430664,91.2699966430664,90.5,257500.0,87.63774108886719
2018-03-14,91.2699966430664,89.43000030517578,90.95999908447266,90.06999969482422,266900.0,87.22134399414062
2018-03-15,90.56999969482422,89.80000305175781,90.13999938964844,90.27999877929688,239600.0,87.42469787597656
2018-03-16,91.12999725341797,89.76000213623047,90.3499984741211,90.1500015258789,424800.0,87.29881286621094
2018-03-19,90.36000061035156,89.44999694824219,90.05999755859375,89.95999908447266,155000.0,87.11482238769531
2018-03-20,90.48999786376953,89.66999816894531,90.0199966430664,89.77999877929688,247700.0,86.94049835205078
2018-03-21,90.33999633789062,89.38999938964844,89.70999908447266,89.58999633789062,266300.0,86.75652313232422
2018-03-22,89.91000366210938,87.93000030517578,89.22000122070312,87.95999908447266,260900.0,85.17807006835938
2018-03-23,87.94000244140625,86.69000244140625,87.94000244140625,86.7699966430664,215900.0,84.02570343017578
2018-03-26,88.55000305175781,87.06999969482422,87.66000366210938,88.20999908447266,278900.0,85.42015838623047
2018-03-27,89.12999725341797,87.62000274658203,88.5199966430664,88.08000183105469,253200.0,85.29428100585938
2018-03-28,88.9000015258789,87.81999969482422,88.08000183105469,88.36000061035156,194000.0,85.56542205810547
2018-03-29,90.33999633789062,88.36000061035156,88.87999725341797,89.83000183105469,287300.0,86.98893737792969
2018-04-02,89.73999786376953,87.16999816894531,89.37000274658203,87.93000030517578,184400.0,85.1490249633789
2018-04-03,90.16999816894531,87.69000244140625,88.43000030517578,89.55999755859375,336600.0,86.72747039794922
2018-04-04,89.94999694824219,86.8499984741211,88.91999816894531,89.70999908447266,276500.0,86.87271881103516
2018-04-05,90.8499984741211,89.27999877929688,90.30000305175781,90.4000015258789,276400.0,87.54090881347656
2018-04-06,90.36000061035156,88.2300033569336,89.69000244140625,88.5,362200.0,85.70099639892578
2018-04-09,90.33999633789062,88.5999984741211,89.1500015258789,89.9000015258789,471500.0,87.05671691894531
2018-04-10,93.0999984741211,90.0999984741211,90.75,92.72000122070312,455600.0,89.78752136230469
2018-04-11,92.63999938964844,91.75,91.97000122070312,92.25,250800.0,89.33238983154297
2018-04-12,93.25,92.4800033569336,92.76000213623047,92.69999694824219,221500.0,89.76815795898438
2018-04-13,93.33000183105469,92.45999908447266,93.19999694824219,92.75,262600.0,89.81658172607422
2018-04-16,94.66000366210938,92.95999908447266,93.02999877929688,94.30999755859375,196900.0,91.32723999023438
2018-04-17,96.38999938964844,93.79000091552734,94.27999877929688,96.12999725341797,507200.0,93.08966064453125
2018-04-18,96.19999694824219,95.18000030517578,96.1500015258789,95.61000061035156,346800.0,92.58612060546875
2018-04-19,95.87999725341797,94.54000091552734,95.05000305175781,94.80000305175781,165000.0,91.80174255371094
2018-04-20,95.13999938964844,94.12000274658203,95.11000061035156,94.44000244140625,217800.0,91.453125
2018-04-23,95.43000030517578,94.0999984741211,94.70999908447266,94.3499984741211,189500.0,91.36597442626953
2018-04-24,94.69999694824219,92.7699966430664,94.5999984741211,93.18000030517578,401900.0,90.23297882080078
2018-04-25,93.94999694824219,92.37000274658203,93.0199966430664,93.1500015258789,298700.0,90.20393371582031
2018-04-26,93.69999694824219,92.5999984741211,93.18000030517578,93.27999877929688,417000.0,90.3298110961914
2018-04-27,94.73999786376953,91.87999725341797,93.75,93.45999908447266,407500.0,90.50411987304688
2018-04-30,93.98999786376953,93.05000305175781,93.7300033569336,93.5,907800.0,90.5428695678711
2018-05-01,93.87000274658203,92.7300033569336,93.44999694824219,93.54000091552734,427800.0,90.58160400390625
2018-05-02,94.0,92.47000122070312,94.0,92.55999755859375,631100.0,89.63258361816406
2018-05-03,92.83000183105469,90.9800033569336,92.25,91.12000274658203,560200.0,88.23812866210938
2018-05-04,92.7699966430664,90.83999633789062,90.83999633789062,92.26000213623047,339900.0,89.34207153320312
2018-05-07,93.29000091552734,92.30000305175781,92.37000274658203,92.80000305175781,215100.0,89.86499786376953
2018-05-08,92.79000091552734,91.55000305175781,92.7699966430664,91.76000213623047,284600.0,89.16535949707031
2018-05-09,93.05999755859375,91.37000274658203,92.0,92.95999908447266,255500.0,90.3314208984375
2018-05-10,93.94000244140625,93.05000305175781,93.0999984741211,93.79000091552734,377900.0,91.13795471191406
2018-05-11,94.31999969482422,93.1500015258789,93.75,94.29000091552734,492900.0,91.62381744384766
2018-05-14,94.70999908447266,92.29000091552734,94.19000244140625,93.37000274658203,477500.0,90.7298355102539
2018-05-15,93.16999816894531,91.58999633789062,93.16999816894531,92.0999984741211,406400.0,89.49573516845703
2018-05-16,93.7699966430664,91.91999816894531,92.31999969482422,93.54000091552734,257600.0,90.89503479003906
2018-05-17,93.91999816894531,93.05000305175781,93.66999816894531,93.29000091552734,242600.0,90.65208435058594
2018-05-18,94.27999877929688,92.37999725341797,92.55999755859375,93.55999755859375,272300.0,90.9144515991211
2018-05-21,94.41000366210938,93.83999633789062,94.0199966430664,94.01000213623047,162300.0,91.35173797607422
2018-05-22,94.94999694824219,93.66999816894531,94.27999877929688,93.95999908447266,165300.0,91.30314636230469
2018-05-23,94.2699966430664,93.36000061035156,93.62999725341797,94.08999633789062,165800.0,91.42945861816406
2018-05-24,94.4800033569336,93.58000183105469,94.12000274658203,94.02999877929688,116200.0,91.37116241455078
2018-05-25,94.41999816894531,93.8499984741211,93.87999725341797,94.08000183105469,154900.0,91.41976165771484
2018-05-29,94.01000213623047,93.05999755859375,93.45999908447266,93.30999755859375,212700.0,90.67151641845703
2018-05-30,94.41000366210938,92.69999694824219,92.69999694824219,93.95999908447266,258600.0,91.30314636230469
2018-05-31,94.38999938964844,92.19000244140625,94.25,92.31999969482422,151900.0,89.70952606201172
2018-06-01,93.29000091552734,92.47000122070312,92.87999725341797,92.7699966430664,174800.0,90.14678955078125
2018-06-04,93.9000015258789,92.44000244140625,93.11000061035156,93.86000061035156,172100.0,91.20597076416016
2018-06-05,94.5,93.55999755859375,94.05999755859375,93.91999816894531,114800.0,91.26427459716797
2018-06-06,94.0999984741211,92.04000091552734,93.66999816894531,93.91000366210938,437300.0,91.25456237792969
2018-06-07,94.43000030517578,92.44000244140625,93.83000183105469,93.23999786376953,534000.0,90.60350036621094
2018-06-08,93.9000015258789,92.9800033569336,93.05000305175781,93.66000366210938,290600.0,91.01163482666016
2018-06-11,94.86000061035156,93.43000030517578,93.79000091552734,93.81999969482422,389400.0,91.16709899902344
2018-06-12,94.88999938964844,93.5999984741211,94.08999633789062,94.1500015258789,455100.0,91.48778533935547
2018-06-13,95.0,94.05000305175781,94.55000305175781,94.31999969482422,321400.0,91.65296936035156
2018-06-14,95.26000213623047,94.26000213623047,94.80999755859375,94.86000061035156,320400.0,92.17770385742188
2018-06-15,95.37000274658203,94.38999938964844,95.0,94.91999816894531,505200.0,92.23599243164062
2018-06-18,95.08000183105469,94.0199966430664,94.56999969482422,94.83999633789062,347300.0,92.15825653076172
2018-06-19,94.62000274658203,93.61000061035156,93.94999694824219,94.25,333700.0,91.58495330810547
2018-06-20,94.87000274658203,93.94000244140625,94.16999816894531,94.63999938964844,285600.0,91.96392822265625
2018-06-21,94.61000061035156,92.94999694824219,94.51000213623047,93.0999984741211,296900.0,90.46746063232422
2018-06-22,93.48999786376953,92.33999633789062,93.27999877929688,92.62999725341797,681100.0,90.0107421875
2018-06-25,93.19999694824219,91.41999816894531,92.7699966430664,92.18000030517578,348700.0,89.573486328125
2018-06-26,93.44999694824219,92.0199966430664,92.3499984741211,92.70999908447266,266700.0,90.08848571777344
2018-06-27,93.91000366210938,92.06999969482422,92.77999877929688,92.0999984741211,295800.0,89.49573516845703
2018-06-28,92.76000213623047,91.66000366210938,92.0,92.70999908447266,251300.0,90.08848571777344
2018-06-29,94.12000274658203,92.93000030517578,93.19999694824219,93.37999725341797,335800.0,90.73954010009766
2018-07-02,93.7699966430664,92.45999908447266,92.91000366210938,93.58999633789062,237500.0,90.94361114501953
2018-07-03,95.02999877929688,93.61000061035156,93.95999908447266,93.98999786376953,178000.0,91.3322982788086
2018-07-05,94.54000091552734,93.44999694824219,94.48999786376953,94.54000091552734,249900.0,91.86673736572266
2018-07-06,94.37999725341797,93.72000122070312,94.22000122070312,94.08000183105469,238000.0,91.41976165771484
2018-07-09,95.62999725341797,94.44999694824219,94.44999694824219,95.0999984741211,188700.0,92.41090393066406
2018-07-10,96.16000366210938,95.16999816894531,95.16999816894531,96.11000061035156,216100.0,93.3923568725586
2018-07-11,96.37000274658203,95.11000061035156,95.61000061035156,95.68000030517578,220800.0,92.9745101928711
2018-07-12,96.83000183105469,95.58999633789062,96.0,95.73999786376953,196700.0,93.03280639648438
2018-07-13,96.19000244140625,94.66000366210938,95.36000061035156,94.87000274658203,205300.0,92.1874008178711
2018-07-16,94.87999725341797,93.16999816894531,94.7699966430664,93.29000091552734,132000.0,90.65208435058594
2018-07-17,94.73999786376953,93.16000366210938,93.22000122070312,94.63999938964844,155400.0,91.96392822265625
2018-07-18,95.18000030517578,94.18000030517578,94.63999938964844,94.62000274658203,150000.0,91.94448852539062
2018-07-19,96.54000091552734,94.69999694824219,94.69999694824219,96.33000183105469,213300.0,93.60612487792969
2018-07-20,96.16000366210938,95.33000183105469,95.94000244140625,95.77999877929688,192600.0,93.07168579101562
2018-07-23,96.33000183105469,94.79000091552734,95.94000244140625,95.13999938964844,195800.0,92.44976806640625
2018-07-24,95.86000061035156,94.52999877929688,95.33999633789062,94.75,225300.0,92.07081604003906
2018-07-25,95.0,94.05000305175781,94.56999969482422,94.7300033569336,182300.0,92.05137634277344
2018-07-26,96.37999725341797,94.55999755859375,94.87999725341797,96.06999969482422,170300.0,93.35347747802734
2018-07-27,103.02999877929688,97.1500015258789,98.0,102.9000015258789,626000.0,99.99034881591797
2018-07-30,104.0999984741211,99.94000244140625,103.5199966430664,102.5,531800.0,99.60167694091797
2018-07-31,103.4800033569336,100.77999877929688,102.4800033569336,102.43000030517578,588100.0,99.86490631103516
2018-08-01,102.68000030517578,101.41000366210938,102.4000015258789,102.43000030517578,301400.0,99.86490631103516
2018-08-02,103.58000183105469,101.30999755859375,101.63999938964844,102.9800033569336,327400.0,100.40113067626953
2018-08-03,104.5,102.8499984741211,102.98999786376953,104.0999984741211,300200.0,101.49309539794922
2018-08-06,104.94999694824219,103.9800033569336,104.01000213623047,104.20999908447266,279500.0,101.60032653808594
2018-08-07,104.68000030517578,103.38999938964844,104.16000366210938,103.55000305175781,296500.0,100.95685577392578
2018-08-08,103.9800033569336,102.87000274658203,103.33999633789062,102.95999908447266,277900.0,100.38163757324219
2018-08-09,104.06999969482422,103.0,103.11000061035156,103.9000015258789,265500.0,101.29808807373047
2018-08-10,104.04000091552734,102.16000366210938,103.37000274658203,102.37999725341797,325600.0,99.81614685058594
2018-08-13,103.47000122070312,100.94000244140625,102.23999786376953,101.4000015258789,227800.0,98.8606948852539
2018-08-14,102.5,101.33000183105469,101.88999938964844,101.9800033569336,176500.0,99.42617797851562
2018-08-15,101.66000366210938,100.05999755859375,101.55999755859375,101.33999633789062,300500.0,98.80218505859375
2018-08-16,102.16000366210938,101.3499984741211,101.62000274658203,101.66999816894531,276300.0,99.12391662597656
2018-08-17,102.98999786376953,101.4000015258789,101.68000030517578,102.76000213623047,131800.0,100.1866455078125
2018-08-20,103.5199966430664,102.5999984741211,102.91999816894531,102.86000061035156,198600.0,100.28414154052734
2018-08-21,103.8499984741211,102.83000183105469,102.83000183105469,103.29000091552734,209600.0,100.703369140625
2018-08-22,103.4000015258789,102.73999786376953,103.31999969482422,103.18000030517578,103300.0,100.59612274169922
2018-08-23,103.55000305175781,102.76000213623047,103.31999969482422,102.91000366210938,124400.0,100.33287811279297
2018-08-24,104.13999938964844,102.9800033569336,102.9800033569336,103.80000305175781,127300.0,101.20059967041016
2018-08-27,104.83999633789062,103.79000091552734,103.79000091552734,104.54000091552734,175400.0,101.92205810546875
2018-08-28,105.19000244140625,103.80999755859375,104.55999755859375,103.88999938964844,214900.0,101.28833770751953
2018-08-29,105.16999816894531,103.7699966430664,104.19999694824219,104.69999694824219,199700.0,102.07804870605469
2018-08-30,105.7699966430664,103.81999969482422,104.86000061035156,104.69999694824219,231900.0,102.07804870605469
2018-08-31,105.44000244140625,104.37999725341797,104.62000274658203,104.70999908447266,153000.0,102.08779907226562
2018-09-04,106.5,104.58000183105469,105.31999969482422,106.37999725341797,323600.0,103.71598815917969
2018-09-05,108.77999877929688,106.27999877929688,106.27999877929688,108.18000030517578,334100.0,105.47090148925781
2018-09-06,109.69000244140625,108.12999725341797,108.4000015258789,108.94999694824219,228400.0,106.22161102294922
2018-09-07,108.94000244140625,107.79000091552734,108.94000244140625,107.9000015258789,258500.0,105.19791412353516
2018-09-10,109.08000183105469,107.88999938964844,108.38999938964844,108.55999755859375,212400.0,105.84139251708984
2018-09-11,108.7300033569336,107.54000091552734,108.26000213623047,108.5199966430664,101600.0,105.8023910522461
2018-09-12,109.62999725341797,108.12000274658203,108.36000061035156,109.38999938964844,154700.0,106.65060424804688
2018-09-13,110.9000015258789,108.66999816894531,108.75,110.81999969482422,273900.0,108.04479217529297
2018-09-14,112.16000366210938,109.79000091552734,110.7699966430664,111.97000122070312,424200.0,109.16600036621094
2018-09-17,112.30999755859375,110.91000366210938,112.30000305175781,111.30000305175781,564500.0,108.51277160644531
2018-09-18,111.79000091552734,109.97000122070312,111.19999694824219,111.58999633789062,202600.0,108.79550170898438
2018-09-19,111.9000015258789,110.52999877929688,111.66999816894531,111.12999725341797,204300.0,108.3470230102539
2018-09-20,111.51000213623047,110.19000244140625,111.27999877929688,110.48999786376953,204500.0,107.72303771972656
2018-09-21,110.8499984741211,109.66999816894531,110.16999816894531,110.31999969482422,473200.0,107.55731201171875
2018-09-24,111.47000122070312,109.98999786376953,110.19999694824219,110.37999725341797,352400.0,107.61580657958984
2018-09-25,110.95999908447266,108.62000274658203,110.75,108.76000213623047,279000.0,106.03639221191406
2018-09-26,109.48999786376953,108.37000274658203,108.66000366210938,108.5999984741211,629100.0,105.88038635253906
2018-09-27,109.19000244140625,108.16000366210938,108.5999984741211,108.33999633789062,255600.0,105.62688446044922
2018-09-28,108.88999938964844,107.55000305175781,108.20999908447266,107.73999786376953,416900.0,105.04192352294922
2018-10-01,109.19999694824219,107.37000274658203,108.05000305175781,107.7699966430664,208600.0,105.07117462158203
2018-10-02,108.61000061035156,107.5999984741211,107.93000030517578,108.1500015258789,210300.0,105.44165802001953
2018-10-03,108.62999725341797,107.52999877929688,108.51000213623047,108.0,361200.0,105.29541778564453
2018-10-04,107.79000091552734,106.30000305175781,107.79000091552734,107.08999633789062,273300.0,104.40819549560547
2018-10-05,107.63999938964844,106.95999908447266,107.16999816894531,107.16999816894531,220800.0,104.4862060546875
2018-10-08,107.8499984741211,106.83999633789062,107.12000274658203,107.66999816894531,164700.0,104.97367858886719
2018-10-09,107.38999938964844,105.68000030517578,107.38999938964844,105.72000122070312,277500.0,103.07251739501953
2018-10-10,105.7699966430664,102.12000274658203,105.30000305175781,102.41999816894531,456000.0,99.85514831542969
2018-10-11,103.45999908447266,101.45999908447266,102.37000274658203,101.56999969482422,312700.0,99.02642822265625
2018-10-12,103.36000061035156,100.33999633789062,102.68000030517578,101.6500015258789,399100.0,99.10443115234375
2018-10-15,102.95999908447266,101.05000305175781,101.66999816894531,102.1500015258789,239600.0,99.59191131591797
2018-10-16,105.7699966430664,102.66000366210938,102.66000366210938,105.5999984741211,231300.0,102.95552062988281
2018-10-17,106.08999633789062,104.41999816894531,106.08999633789062,105.0199966430664,180900.0,102.39004516601562
2018-10-18,105.23999786376953,103.83000183105469,104.7300033569336,104.2699966430664,439900.0,101.65880584716797
2018-10-19,105.20999908447266,104.27999877929688,104.58999633789062,104.31999969482422,271800.0,101.70756530761719
2018-10-22,104.73999786376953,103.05000305175781,104.61000061035156,103.97000122070312,199300.0,101.36632537841797
2018-10-23,104.56999969482422,101.72000122070312,102.7300033569336,103.68000030517578,479500.0,101.0835952758789
2018-10-24,103.81999969482422,99.87999725341797,103.62999725341797,100.08000183105469,498300.0,97.5737533569336
2018-10-25,101.97000122070312,100.51000213623047,100.87999725341797,101.29000091552734,299800.0,98.75345611572266
2018-10-26,101.05000305175781,99.30999755859375,100.44999694824219,100.36000061035156,423800.0,97.84674072265625
2018-10-29,102.06999969482422,99.13999938964844,101.31999969482422,100.16000366210938,271300.0,97.65174865722656
2018-10-30,101.41000366210938,99.33999633789062,100.04000091552734,101.37000274658203,318600.0,99.16807556152344
2018-10-31,103.06999969482422,101.8499984741211,102.43000030517578,101.95999908447266,417100.0,99.7452621459961
2018-11-01,103.47000122070312,102.38999938964844,102.69000244140625,103.18000030517578,392600.0,100.93875885009766
2018-11-02,105.33000183105469,95.05999755859375,97.05000305175781,103.80000305175781,959300.0,101.54529571533203
2018-11-05,104.4800033569336,101.25,103.98999786376953,101.87999725341797,481500.0,99.6669921875
2018-11-06,104.7699966430664,101.48999786376953,101.63999938964844,104.0999984741211,381300.0,101.83877563476562
2018-11-07,105.26000213623047,103.33999633789062,104.87999725341797,105.11000061035156,340200.0,102.82683563232422
2018-11-08,105.7699966430664,104.5999984741211,104.94999694824219,105.12999725341797,368400.0,102.84639739990234
2018-11-09,105.80000305175781,103.12999725341797,104.95999908447266,104.29000091552734,227100.0,102.024658203125
2018-11-12,104.3499984741211,101.58000183105469,104.16000366210938,101.7699966430664,343100.0,99.55937194824219
2018-11-13,103.45999908447266,101.54000091552734,102.33000183105469,102.37999725341797,225200.0,100.15614318847656
2018-11-14,103.91000366210938,101.70999908447266,103.04000091552734,102.08000183105469,163200.0,99.86265563964844
2018-11-15,104.83000183105469,101.20999908447266,101.55000305175781,104.79000091552734,261000.0,102.51378631591797
2018-11-16,107.1500015258789,104.19000244140625,104.19000244140625,106.27999877929688,235400.0,103.97142028808594
2018-11-19,106.6500015258789,104.70999908447266,106.19999694824219,105.18000030517578,192700.0,102.89531707763672
2018-11-20,105.43000030517578,103.37000274658203,104.62000274658203,104.30999755859375,246800.0,102.04420471191406
2018-11-21,105.19000244140625,103.1500015258789,104.68000030517578,103.5,221600.0,101.2518081665039
2018-11-23,104.41999816894531,102.9800033569336,103.0,103.9000015258789,75400.0,101.64311981201172
2018-11-26,104.98999786376953,102.94999694824219,104.72000122070312,103.69000244140625,231700.0,101.43767547607422
2018-11-27,103.31999969482422,102.08999633789062,103.30000305175781,102.30000305175781,213400.0,100.077880859375
2018-11-28,104.06999969482422,101.68000030517578,102.80000305175781,104.02999877929688,327800.0,101.7702865600586
2018-11-29,104.93000030517578,103.69000244140625,103.72000122070312,103.8499984741211,238400.0,101.59420013427734
2018-11-30,104.55000305175781,103.25,103.66000366210938,104.05000305175781,330400.0,101.78985595703125
2018-12-03,105.51000213623047,102.44999694824219,105.2300033569336,104.45999908447266,292000.0,102.19095611572266
2018-12-04,104.86000061035156,102.83000183105469,104.86000061035156,102.94000244140625,273100.0,100.70397186279297
2018-12-06,102.0,98.3499984741211,102.0,101.62999725341797,302900.0,99.42241668701172
2018-12-07,102.8499984741211,99.0999984741211,100.88999938964844,99.7699966430664,226100.0,97.60282897949219
2018-12-10,99.86000061035156,98.22000122070312,99.43000030517578,99.11000061035156,161100.0,96.95716857910156
2018-12-11,101.0199966430664,98.27999877929688,100.0999984741211,98.66999816894531,192600.0,96.5267105102539
2018-12-12,100.94000244140625,99.75,100.0999984741211,99.93000030517578,240900.0,97.75935363769531
2018-12-13,101.2699966430664,99.51000213623047,100.41999816894531,100.31999969482422,167800.0,98.14088439941406
2018-12-14,100.95999908447266,99.12999725341797,100.04000091552734,100.33999633789062,187100.0,98.16044616699219
2018-12-17,100.6500015258789,98.04000091552734,99.83999633789062,98.63999938964844,313900.0,96.49737548828125
2018-12-18,100.2699966430664,97.2699966430664,99.43000030517578,97.94000244140625,231000.0,95.81258392333984
2018-12-19,98.83999633789062,95.2699966430664,98.27999877929688,95.58999633789062,268300.0,93.51362609863281
2018-12-20,96.1500015258789,93.66999816894531,95.51000213623047,95.01000213623047,248100.0,92.94622039794922
2018-12-21,96.61000061035156,93.51000213623047,94.76000213623047,93.55000305175781,588800.0,91.5179443359375
2018-12-24,92.86000061035156,89.66999816894531,92.86000061035156,89.69999694824219,168300.0,87.7515640258789
2018-12-26,92.01000213623047,89.72000122070312,89.72000122070312,91.7699966430664,394400.0,89.7765884399414
2018-12-27,92.4800033569336,90.01000213623047,90.69999694824219,92.37000274658203,467500.0,90.36358642578125
2018-12-28,93.91000366210938,92.05000305175781,92.5999984741211,92.69999694824219,437400.0,90.6864013671875
2018-12-31,94.06999969482422,92.66000366210938,92.81999969482422,94.06999969482422,246900.0,92.02664184570312
2019-01-02,92.7300033569336,89.44999694824219,92.7300033569336,90.18000030517578,517500.0,88.22114562988281
2019-01-03,90.20999908447266,88.26000213623047,88.97000122070312,89.08999633789062,637200.0,87.15482330322266
2019-01-04,91.9000015258789,89.29000091552734,90.0999984741211,91.06999969482422,433600.0,89.09181213378906
2019-01-07,93.48999786376953,90.58000183105469,90.5999984741211,91.94999694824219,525400.0,89.95269012451172
2019-01-08,94.0999984741211,91.76000213623047,92.81999969482422,93.5199966430664,379600.0,91.48857879638672
2019-01-09,94.19999694824219,93.20999908447266,93.86000061035156,93.4800033569336,195700.0,91.449462890625
2019-01-10,94.81999969482422,93.12999725341797,93.13999938964844,94.58000183105469,205800.0,92.52557373046875
2019-01-11,94.75,93.43000030517578,94.66999816894531,94.7300033569336,248200.0,92.67231750488281
2019-01-14,94.8499984741211,93.73999786376953,94.27999877929688,93.95999908447266,210500.0,91.91902923583984
2019-01-15,95.4000015258789,93.9000015258789,93.97000122070312,94.80999755859375,213900.0,92.75056457519531
2019-01-16,95.3499984741211,94.38999938964844,94.81999969482422,94.70999908447266,187100.0,92.65274047851562
2019-01-17,96.16999816894531,94.37999725341797,94.38999938964844,95.93000030517578,265500.0,93.84622955322266
2019-01-18,97.97000122070312,95.87999725341797,96.0999984741211,97.69000244140625,237400.0,95.56800842285156
2019-01-22,98.25,95.12000274658203,97.41999816894531,96.44000244140625,304000.0,94.34516143798828
2019-01-23,97.7699966430664,96.25,96.69999694824219,97.37999725341797,266300.0,95.2647476196289
2019-01-24,98.05999755859375,96.70999908447266,97.25,97.12999725341797,135300.0,95.02017211914062
2019-01-25,98.3499984741211,97.06999969482422,97.91000366210938,97.38999938964844,116300.0,95.2745361328125
2019-01-28,98.51000213623047,97.27999877929688,97.38999938964844,97.87999725341797,217900.0,95.7538833618164
2019-01-29,98.41999816894531,97.41999816894531,97.41999816894531,97.94000244140625,161600.0,96.14656829833984
2019-01-30,98.80000305175781,97.62000274658203,98.0999984741211,97.95999908447266,292500.0,96.16618347167969
2019-01-31,99.27999877929688,97.23999786376953,98.0,99.12000274658203,346500.0,97.3049545288086
2019-02-01,99.9800033569336,99.05000305175781,99.33000183105469,99.55000305175781,269600.0,97.7270736694336
2019-02-04,99.88999938964844,98.5199966430664,99.41999816894531,99.8499984741211,137200.0,98.02159118652344
2019-02-05,101.12999725341797,99.41999816894531,99.94999694824219,101.06999969482422,288000.0,99.21924591064453
2019-02-06,102.0,100.58000183105469,100.62000274658203,101.58999633789062,206800.0,99.72972869873047
2019-02-07,102.04000091552734,100.83999633789062,101.12999725341797,101.94999694824219,202100.0,100.0831298828125
2019-02-08,102.30999755859375,100.95999908447266,101.56999969482422,101.38999938964844,184300.0,99.53338623046875
2019-02-11,102.44999694824219,101.23999786376953,101.87999725341797,101.69999694824219,239100.0,99.83769989013672
2019-02-12,102.69000244140625,101.73999786376953,102.30000305175781,102.31999969482422,230000.0,100.44635772705078
2019-02-13,103.51000213623047,102.26000213623047,102.70999908447266,102.80000305175781,229700.0,100.91757202148438
2019-02-14,103.02999877929688,101.55999755859375,102.23999786376953,101.7699966430664,234000.0,99.90641784667969
2019-02-15,102.45999908447266,101.3499984741211,102.31999969482422,101.94000244140625,235800.0,100.07331848144531
2019-02-19,102.02999877929688,101.26000213623047,101.83999633789062,101.55000305175781,378800.0,99.69046783447266
2019-02-20,102.66000366210938,101.30999755859375,101.47000122070312,102.26000213623047,282100.0,100.387451171875
2019-02-21,104.0,100.63999938964844,102.30000305175781,103.12000274658203,508600.0,101.23170471191406
2019-02-22,103.55000305175781,101.23999786376953,102.4800033569336,102.05000305175781,303400.0,100.1812973022461
2019-02-25,102.5999984741211,101.11000061035156,102.2699966430664,101.55999755859375,336100.0,99.70027160644531
2019-02-26,101.66999816894531,100.93000030517578,101.20999908447266,101.30999755859375,302500.0,99.45484924316406
2019-02-27,102.30000305175781,100.79000091552734,102.0199966430664,101.41000366210938,375300.0,99.55302429199219
2019-02-28,102.05000305175781,100.97000122070312,101.26000213623047,101.7300033569336,311500.0,99.8671646118164
2019-03-01,102.20999908447266,100.69000244140625,102.20999908447266,100.80999755859375,245900.0,98.96400451660156
2019-03-04,102.1500015258789,100.62999725341797,101.25,101.61000061035156,324000.0,99.74935150146484
2019-03-05,102.2699966430664,101.33000183105469,101.68000030517578,101.47000122070312,211000.0,99.61192321777344
2019-03-06,102.0199966430664,100.43000030517578,101.52999877929688,100.48999786376953,127500.0,98.64986419677734
2019-03-07,100.62999725341797,99.36000061035156,100.19999694824219,99.87999725341797,151600.0,98.05104064941406
2019-03-08,100.62000274658203,99.20999908447266,99.20999908447266,100.47000122070312,146300.0,98.6302261352539
2019-03-11,102.06999969482422,100.56999969482422,100.5999984741211,102.0199966430664,175300.0,100.15184020996094
2019-03-12,102.91000366210938,102.05000305175781,102.05999755859375,102.26000213623047,176700.0,100.387451171875
2019-03-13,103.33999633789062,102.08999633789062,102.5,102.27999877929688,287600.0,100.40709686279297
2019-03-14,103.04000091552734,101.80999755859375,102.33999633789062,102.88999938964844,169400.0,101.00591278076172
2019-03-15,103.58000183105469,102.58000183105469,102.91999816894531,103.05000305175781,278600.0,101.16299438476562
2019-03-18,103.83999633789062,102.8499984741211,103.22000122070312,103.70999908447266,132800.0,101.81090545654297
2019-03-19,104.58999633789062,103.23999786376953,104.22000122070312,103.5999984741211,188800.0,101.70291900634766
2019-03-20,104.83000183105469,102.86000061035156,103.41999816894531,103.94999694824219,181300.0,102.04649353027344
2019-03-21,105.68000030517578,103.56999969482422,103.56999969482422,105.54000091552734,194000.0,103.60738372802734
2019-03-22,105.26000213623047,103.5,105.26000213623047,103.83000183105469,213200.0,101.92870330810547
2019-03-25,104.97000122070312,103.0199966430664,103.55000305175781,104.51000213623047,163900.0,102.59626007080078
2019-03-26,106.37999725341797,104.69999694824219,105.0,105.44000244140625,262300.0,103.50923156738281
2019-03-27,106.48999786376953,105.12999725341797,105.5199966430664,105.5199966430664,179500.0,103.5877456665039
2019-03-28,106.38999938964844,105.41999816894531,105.76000213623047,106.19000244140625,129900.0,104.24549102783203
2019-03-29,106.68000030517578,105.47000122070312,106.0999984741211,106.38999938964844,337900.0,104.44181823730469
2019-04-01,107.81999969482422,106.20999908447266,106.91000366210938,107.70999908447266,234000.0,105.73765563964844
2019-04-02,107.80000305175781,106.66000366210938,107.80000305175781,107.22000122070312,194600.0,105.25662994384766
2019-04-03,108.08000183105469,107.16000366210938,107.61000061035156,107.47000122070312,201200.0,105.50205993652344
2019-04-04,108.16000366210938,107.29000091552734,107.68000030517578,108.0999984741211,164000.0,106.12051391601562
2019-04-05,108.95999908447266,107.56999969482422,107.56999969482422,108.73999786376953,161400.0,106.74878692626953
2019-04-08,109.2699966430664,107.98999786376953,108.6500015258789,108.98999786376953,149600.0,106.99421691894531
2019-04-09,108.55999755859375,107.5199966430664,108.38999938964844,108.16000366210938,183400.0,106.17941284179688
2019-04-10,109.30000305175781,107.94999694824219,108.22000122070312,109.04000091552734,166200.0,107.04329681396484
2019-04-11,109.86000061035156,108.9800033569336,109.29000091552734,109.66000366210938,228900.0,107.65194702148438
2019-04-12,110.69999694824219,109.79000091552734,109.94999694824219,110.30999755859375,185900.0,108.29004669189453
2019-04-15,110.5,109.48999786376953,110.33999633789062,109.88999938964844,190500.0,107.87773132324219
2019-04-16,109.97000122070312,108.76000213623047,109.80999755859375,109.62000274658203,197600.0,107.61267852783203
2019-04-17,109.75,107.58999633789062,109.68000030517578,107.69999694824219,150500.0,105.72783660888672
2019-04-18,108.37999725341797,107.30000305175781,107.93000030517578,108.20999908447266,214600.0,106.22850036621094
2019-04-22,109.37000274658203,108.25,108.25,108.93000030517578,165800.0,106.9353256225586
2019-04-23,110.52999877929688,109.02999877929688,109.02999877929688,110.05999755859375,220800.0,108.04461669921875
2019-04-24,110.86000061035156,109.94000244140625,109.97000122070312,109.94000244140625,152200.0,107.92681884765625
2019-04-25,109.97000122070312,108.83000183105469,109.20999908447266,109.44999694824219,132400.0,107.44578552246094
2019-04-26,111.6500015258789,109.69999694824219,109.70999908447266,111.41999816894531,138900.0,109.37972259521484
2019-04-29,111.72000122070312,110.76000213623047,111.37999725341797,111.31999969482422,137600.0,109.28154754638672
2019-04-30,111.80999755859375,109.93000030517578,110.75,111.23999786376953,277600.0,109.55731964111328
2019-05-01,114.66000366210938,111.55000305175781,112.2699966430664,112.80999755859375,336100.0,111.10356903076172
2019-05-02,113.12000274658203,111.62000274658203,112.80999755859375,113.0,345200.0,111.29069519042969
2019-05-03,114.13999938964844,112.7300033569336,113.30000305175781,113.8499984741211,310200.0,112.12783813476562
2019-05-06,115.5199966430664,112.54000091552734,112.54000091552734,115.0199966430664,263000.0,113.2801284790039
2019-05-07,114.68000030517578,113.13999938964844,113.9800033569336,113.97000122070312,159500.0,112.24601745605469
2019-05-08,114.4800033569336,113.30999755859375,113.77999877929688,113.98999786376953,169400.0,112.26571655273438
2019-05-09,113.79000091552734,112.76000213623047,113.37999725341797,113.0,259300.0,111.29069519042969
2019-05-10,113.70999908447266,112.18000030517578,112.72000122070312,113.5999984741211,225100.0,111.8816146850586
2019-05-13,113.16999816894531,111.29000091552734,111.91000366210938,112.80000305175781,160100.0,111.09371185302734
2019-05-14,114.36000061035156,112.88999938964844,113.38999938964844,112.9800033569336,132600.0,111.27099609375
2019-05-15,113.7699966430664,112.36000061035156,112.76000213623047,113.23999786376953,116500.0,111.52705383300781
2019-05-16,114.5,113.26000213623047,113.37999725341797,114.11000061035156,218800.0,112.38390350341797
2019-05-17,114.45999908447266,113.48999786376953,113.48999786376953,113.77999877929688,151800.0,112.05889129638672
2019-05-20,113.80999755859375,112.83000183105469,113.19000244140625,113.04000091552734,175600.0,111.33008575439453
2019-05-21,113.88999938964844,113.08999633789062,113.51000213623047,113.4800033569336,156300.0,111.763427734375
2019-05-22,113.9800033569336,113.0,113.7699966430664,113.1500015258789,146800.0,111.43841552734375
2019-05-23,113.69000244140625,112.04000091552734,112.54000091552734,112.95999908447266,119600.0,111.25128936767578
2019-05-24,113.87000274658203,112.75,113.29000091552734,112.93000030517578,117700.0,111.22174835205078
2019-05-28,113.62000274658203,112.69000244140625,113.04000091552734,112.9000015258789,259200.0,111.19220733642578
2019-05-29,113.44000244140625,112.27999877929688,112.54000091552734,112.69999694824219,188200.0,110.99522399902344
2019-05-30,113.62999725341797,112.54000091552734,112.7300033569336,113.51000213623047,128700.0,111.79296875
2019-05-31,113.7300033569336,111.5,112.52999877929688,113.2699966430664,247400.0,111.55660247802734
2019-06-03,115.0,113.41000366210938,113.41000366210938,114.02999877929688,297400.0,112.30510711669922
2019-06-04,115.9800033569336,113.68000030517578,114.69999694824219,115.72000122070312,483400.0,113.96955108642578
2019-06-05,117.18000030517578,115.41000366210938,115.9000015258789,117.12999725341797,392000.0,115.35820770263672
2019-06-06,120.38999938964844,117.20999908447266,117.20999908447266,120.2300033569336,319800.0,118.41133880615234
2019-06-07,122.5999984741211,119.91999816894531,120.0,121.91999816894531,427800.0,120.07575225830078
2019-06-10,123.27999877929688,121.62999725341797,122.19000244140625,123.22000122070312,253200.0,121.3561019897461
2019-06-11,124.44999694824219,121.20999908447266,124.0,122.58000183105469,365600.0,120.72578430175781
2019-06-12,122.98999786376953,121.19000244140625,122.98999786376953,121.62000274658203,273400.0,119.7802963256836
2019-06-13,122.0999984741211,120.30999755859375,121.5,120.72000122070312,166500.0,118.89390563964844
2019-06-14,120.51000213623047,119.56999969482422,120.45999908447266,120.08999633789062,187300.0,118.27344512939453
2019-06-17,120.83999633789062,119.79000091552734,120.04000091552734,120.16999816894531,136300.0,118.35223388671875
2019-06-18,120.69999694824219,119.37999725341797,120.58999633789062,119.48999786376953,208300.0,117.6825180053711
2019-06-19,120.0,118.81999969482422,119.62999725341797,119.41000366210938,340200.0,117.6037368774414
2019-06-20,121.0,118.27999877929688,120.88999938964844,119.80999755859375,335100.0,117.99767303466797
2019-06-21,119.8499984741211,117.43000030517578,119.31999969482422,119.37999725341797,603600.0,117.57418060302734
2019-06-24,119.5,118.4800033569336,119.5,118.77999877929688,187700.0,116.98326110839844
2019-06-25,121.79000091552734,118.87999725341797,119.0,121.05999755859375,300700.0,119.228759765625
2019-06-26,121.25,119.0999984741211,121.23999786376953,119.23999786376953,236700.0,117.4363021850586
2019-06-27,121.80999755859375,119.38999938964844,119.38999938964844,121.55000305175781,247700.0,119.71135711669922
2019-06-28,124.75,121.62000274658203,121.62000274658203,124.33999633789062,831100.0,122.45915222167969
2019-07-01,126.19999694824219,123.12000274658203,125.0,124.2699966430664,322000.0,122.39021301269531
2019-07-02,124.70999908447266,123.22000122070312,124.37000274658203,123.54000091552734,402400.0,121.67125701904297
2019-07-03,125.91999816894531,124.0,124.0,125.91999816894531,188600.0,124.01524353027344
2019-07-05,125.26000213623047,123.01000213623047,125.20999908447266,124.61000061035156,255300.0,122.72506713867188
2019-07-08,125.5,123.63999938964844,125.5,123.98999786376953,199600.0,122.11444854736328
2019-07-09,124.52999877929688,123.79000091552734,123.79000091552734,124.06999969482422,235000.0,122.1932373046875
2019-07-10,125.79000091552734,123.3499984741211,124.62999725341797,123.58000183105469,169900.0,121.71064758300781
2019-07-11,124.12000274658203,123.01000213623047,123.2699966430664,124.0199966430664,226400.0,122.14398956298828
2019-07-12,124.19000244140625,123.20999908447266,124.19000244140625,123.41000366210938,241000.0,121.54322052001953
2019-07-15,123.95999908447266,122.69000244140625,123.1500015258789,122.91999816894531,189600.0,121.06063079833984
2019-07-16,123.36000061035156,122.30000305175781,123.12000274658203,123.16000366210938,230800.0,121.29701232910156
2019-07-17,124.43000030517578,123.12000274658203,123.12000274658203,123.52999877929688,267300.0,121.6613998413086
2019-07-18,124.44999694824219,123.02999877929688,123.1500015258789,124.36000061035156,185300.0,122.47885131835938
2019-07-19,124.94999694824219,123.36000061035156,124.70999908447266,123.4000015258789,226000.0,121.53337097167969
2019-07-22,123.88999938964844,122.81999969482422,123.51000213623047,123.16000366210938,153800.0,121.29701232910156
2019-07-23,124.70999908447266,123.37999725341797,123.88999938964844,124.51000213623047,183600.0,122.62657928466797
2019-07-24,124.55000305175781,122.83999633789062,124.01000213623047,123.29000091552734,215300.0,121.42504119873047
2019-07-25,124.27999877929688,122.68000030517578,123.0,122.91999816894531,273700.0,121.06063079833984
2019-07-26,124.7699966430664,122.93000030517578,123.12999725341797,124.48999786376953,198000.0,122.60688018798828
2019-07-29,125.66000366210938,123.54000091552734,124.44999694824219,124.94000244140625,277400.0,123.05007934570312
2019-07-30,124.56999969482422,122.95999908447266,123.80000305175781,123.80999755859375,221700.0,122.28953552246094
2019-07-31,123.86000061035156,119.94000244140625,123.48999786376953,121.0199966430664,621400.0,119.5337905883789
2019-08-01,120.19000244140625,114.83999633789062,120.19000244140625,117.55999755859375,533000.0,116.11629486083984
2019-08-02,118.33999633789062,115.6500015258789,116.61000061035156,118.0199966430664,316600.0,116.57064056396484
2019-08-05,119.02999877929688,116.25,116.44000244140625,117.08000183105469,462500.0,115.6421890258789
2019-08-06,120.80999755859375,117.37999725341797,117.55000305175781,119.72000122070312,356400.0,118.24977111816406
2019-08-07,122.26000213623047,118.69999694824219,119.0999984741211,121.66000366210938,268700.0,120.16594696044922
2019-08-08,124.0,121.58999633789062,122.4800033569336,122.87000274658203,374300.0,121.36109161376953
2019-08-09,123.2300033569336,121.05000305175781,122.73999786376953,121.08000183105469,186400.0,119.59305572509766
2019-08-12,121.68000030517578,119.91999816894531,121.0199966430664,120.04000091552734,132900.0,118.56584167480469
2019-08-13,121.80999755859375,119.05000305175781,119.77999877929688,121.22000122070312,216300.0,119.7313461303711
2019-08-14,120.7300033569336,118.98999786376953,120.01000213623047,119.08999633789062,375800.0,117.62749481201172
2019-08-15,120.25,117.94999694824219,119.25,118.33000183105469,238400.0,116.87683868408203
2019-08-16,120.73999786376953,117.94999694824219,118.91000366210938,120.25,197800.0,118.77326202392578
2019-08-19,121.4800033569336,120.0,121.19999694824219,120.22000122070312,206400.0,118.7436294555664
2019-08-20,120.0999984741211,118.45999908447266,120.0999984741211,118.87999725341797,141800.0,117.42008209228516
2019-08-21,119.83000183105469,118.88999938964844,119.66000366210938,119.33000183105469,298500.0,117.86455535888672
2019-08-22,120.72000122070312,119.04000091552734,119.83000183105469,120.54000091552734,227100.0,119.0596923828125
2019-08-23,121.33000183105469,119.88999938964844,120.55000305175781,120.26000213623047,296100.0,118.78314208984375
2019-08-26,121.2300033569336,119.91000366210938,120.72000122070312,120.98999786376953,237100.0,119.50416564941406
2019-08-27,121.83000183105469,120.80999755859375,121.4800033569336,121.5,183000.0,120.00790405273438
2019-08-28,122.13999938964844,120.62999725341797,121.48999786376953,121.86000061035156,221100.0,120.36347961425781
2019-08-29,123.44000244140625,121.1500015258789,122.87999725341797,121.69000244140625,184600.0,120.19557189941406
2019-08-30,123.31999969482422,121.2300033569336,122.37999725341797,122.22000122070312,183700.0,120.71905517578125
2019-09-03,121.08000183105469,118.56999969482422,120.80999755859375,119.6500015258789,262000.0,118.18062591552734
2019-09-04,122.05000305175781,120.19000244140625,120.7300033569336,121.94000244140625,160800.0,120.4425048828125
2019-09-05,123.20999908447266,120.9800033569336,122.98999786376953,121.19999694824219,230100.0,119.71158599853516
2019-09-06,121.83999633789062,120.31999969482422,120.95999908447266,120.87999725341797,239300.0,119.39551544189453
2019-09-09,121.56999969482422,118.7699966430664,121.56999969482422,119.0999984741211,232900.0,117.63737487792969
2019-09-10,119.31999969482422,116.12000274658203,118.9800033569336,119.11000061035156,258200.0,117.64725494384766
2019-09-11,119.52999877929688,116.72000122070312,118.9000015258789,118.62999725341797,231700.0,117.17315673828125
2019-09-12,119.69999694824219,117.9800033569336,119.08000183105469,118.05000305175781,163300.0,116.60028076171875
2019-09-13,118.97000122070312,117.66000366210938,118.55000305175781,118.4000015258789,269900.0,116.94597625732422
2019-09-16,117.72000122070312,115.87000274658203,117.72000122070312,116.4800033569336,192100.0,115.049560546875
2019-09-17,117.86000061035156,116.06999969482422,116.19999694824219,117.01000213623047,216700.0,115.57305145263672
2019-09-18,118.94999694824219,116.55999755859375,116.88999938964844,118.30000305175781,253400.0,116.84719848632812
2019-09-19,118.94999694824219,117.63999938964844,118.33000183105469,117.8499984741211,304200.0,116.4027328491211
2019-09-20,119.0199966430664,117.55999755859375,118.13999938964844,118.05000305175781,527900.0,116.60028076171875
2019-09-23,118.97000122070312,117.61000061035156,117.61000061035156,118.0999984741211,164300.0,116.649658203125
2019-09-24,119.48999786376953,118.25,118.5999984741211,118.51000213623047,187100.0,117.05461883544922
2019-09-25,119.44000244140625,118.66999816894531,118.70999908447266,119.12000274658203,202100.0,117.65714263916016
2019-09-26,119.68000030517578,118.5199966430664,119.56999969482422,118.91999816894531,117900.0,117.4595947265625
2019-09-27,119.30999755859375,118.05999755859375,119.20999908447266,118.66999816894531,149100.0,117.21266174316406
2019-09-30,119.41000366210938,117.83999633789062,118.94999694824219,118.44999694824219,219700.0,116.99535369873047
2019-10-01,119.7300033569336,117.5,119.29000091552734,117.66999816894531,143300.0,116.22493743896484
2019-10-02,117.0199966430664,115.05999755859375,117.0,115.3499984741211,225600.0,113.93342590332031
2019-10-03,115.2300033569336,113.77999877929688,115.0,114.98999786376953,241100.0,113.57785034179688
2019-10-04,117.62000274658203,115.08999633789062,115.30999755859375,117.33000183105469,162400.0,115.88911437988281
2019-10-07,117.44999694824219,116.23999786376953,116.69000244140625,116.55999755859375,216100.0,115.12857055664062
2019-10-08,117.76000213623047,114.51000213623047,116.01000213623047,114.77999877929688,221900.0,113.37042999267578
2019-10-09,116.88999938964844,115.37999725341797,115.81999969482422,116.4800033569336,134700.0,115.049560546875
2019-10-10,117.23999786376953,115.7300033569336,116.4800033569336,116.30999755859375,102400.0,114.88164520263672
2019-10-11,118.0,116.23999786376953,116.91999816894531,116.33000183105469,213700.0,114.90140533447266
2019-10-14,116.87999725341797,115.73999786376953,116.31999969482422,115.8499984741211,131900.0,114.42728424072266
2019-10-15,116.63999938964844,115.05000305175781,116.33999633789062,115.18000030517578,182500.0,113.76551818847656
2019-10-16,115.5999984741211,114.4000015258789,115.13999938964844,115.47000122070312,213700.0,114.05195617675781
2019-10-17,117.08000183105469,115.5,115.56999969482422,116.55000305175781,153800.0,115.11869812011719
2019-10-18,118.0,116.41999816894531,116.41999816894531,117.77999877929688,219100.0,116.33358764648438
2019-10-21,119.11000061035156,117.80000305175781,118.37000274658203,117.9000015258789,142900.0,116.45211791992188
2019-10-22,118.05000305175781,116.62000274658203,118.02999877929688,116.66000366210938,85400.0,115.22734832763672
2019-10-23,117.93000030517578,116.5,116.52999877929688,117.37000274658203,104800.0,115.92863464355469
2019-10-24,118.12999725341797,116.73999786376953,117.44999694824219,117.33999633789062,122500.0,115.89899444580078
2019-10-25,118.62000274658203,117.20999908447266,117.20999908447266,117.87999725341797,120300.0,116.43235778808594
2019-10-28,118.80000305175781,117.83999633789062,117.95999908447266,118.19999694824219,134100.0,116.74842071533203
2019-10-29,119.12999725341797,117.44999694824219,117.44999694824219,118.51000213623047,136600.0,117.41222381591797
2019-10-30,119.62999725341797,117.7699966430664,118.58000183105469,119.25,148200.0,118.14537048339844
2019-10-31,119.62999725341797,117.62000274658203,119.04000091552734,118.1500015258789,316000.0,117.05555725097656
2019-11-01,115.55999755859375,109.54000091552734,113.66999816894531,110.79000091552734,583300.0,109.76374053955078
2019-11-04,111.76000213623047,108.41000366210938,111.01000213623047,108.66999816894531,553700.0,107.66337585449219
2019-11-05,110.25,108.43000030517578,109.20999908447266,108.66000366210938,385300.0,107.65347290039062
2019-11-06,109.80999755859375,108.41999816894531,108.66999816894531,109.48999786376953,369800.0,108.47577667236328
2019-11-07,110.52999877929688,108.91000366210938,109.52999877929688,109.4000015258789,189400.0,108.38661193847656
2019-11-08,110.93000030517578,108.87000274658203,109.30999755859375,109.0,303500.0,107.99031829833984
2019-11-11,109.76000213623047,108.4800033569336,108.4800033569336,108.58000183105469,181500.0,107.57420349121094
2019-11-12,109.30000305175781,108.16000366210938,108.63999938964844,108.22000122070312,185400.0,107.21754455566406
2019-11-13,110.06999969482422,108.0199966430664,108.31999969482422,109.62000274658203,385400.0,108.60457611083984
2019-11-14,110.58000183105469,109.4800033569336,109.4800033569336,110.47000122070312,224000.0,109.44670104980469
2019-11-15,110.7300033569336,109.69999694824219,110.7300033569336,109.95999908447266,307300.0,108.94142150878906
2019-11-18,110.94999694824219,109.87999725341797,109.91999816894531,110.33999633789062,352100.0,109.31790161132812
2019-11-19,111.4000015258789,110.44999694824219,110.7300033569336,110.5,258700.0,109.47642517089844
2019-11-20,111.8499984741211,110.12000274658203,110.12000274658203,110.69999694824219,961400.0,109.67456817626953
2019-11-21,112.05000305175781,110.18000030517578,111.2300033569336,111.30000305175781,244200.0,110.2690200805664
2019-11-22,111.66999816894531,110.0,111.6500015258789,110.12000274658203,151700.0,109.0999526977539
2019-11-25,111.05999755859375,110.16999816894531,110.26000213623047,110.94999694824219,264400.0,109.92224884033203
2019-11-26,112.6500015258789,110.97000122070312,111.5199966430664,112.55999755859375,221900.0,111.517333984375
2019-11-27,113.58000183105469,112.62999725341797,112.98999786376953,112.83000183105469,145500.0,111.78483581542969
2019-11-29,113.20999908447266,111.94000244140625,112.63999938964844,112.12000274658203,89300.0,111.08141326904297
2019-12-02,112.72000122070312,111.62000274658203,112.5199966430664,112.01000213623047,273300.0,110.9724349975586
2019-12-03,113.30999755859375,111.13999938964844,111.51000213623047,112.70999908447266,246400.0,111.66594696044922
2019-12-04,113.4800033569336,111.73999786376953,112.73999786376953,111.77999877929688,284600.0,110.74456024169922
2019-12-05,112.66000366210938,111.6500015258789,111.88999938964844,111.94999694824219,243700.0,110.9129867553711
2019-12-06,113.0,111.80000305175781,112.79000091552734,112.08000183105469,322100.0,111.04179382324219
2019-12-09,112.83999633789062,111.69000244140625,112.30999755859375,112.62999725341797,255000.0,111.5866928100586
2019-12-10,112.83000183105469,111.33999633789062,112.47000122070312,111.94000244140625,219500.0,110.90308380126953
2019-12-11,112.7699966430664,111.9000015258789,111.97000122070312,112.56999969482422,141100.0,111.5272445678711
2019-12-12,114.44000244140625,112.51000213623047,112.51000213623047,114.18000030517578,407000.0,113.12232971191406
2019-12-13,115.38999938964844,113.33000183105469,113.9800033569336,113.97000122070312,380400.0,112.91427612304688
2019-12-16,114.70999908447266,113.30000305175781,114.45999908447266,114.31999969482422,194200.0,113.26103973388672
2019-12-17,114.75,113.05999755859375,114.12999725341797,113.3499984741211,248900.0,112.30001831054688
2019-12-18,113.37000274658203,112.36000061035156,113.3499984741211,113.08000183105469,204000.0,112.03253173828125
2019-12-19,113.4800033569336,112.80000305175781,113.16000366210938,113.26000213623047,172100.0,112.21086120605469
2019-12-20,115.13999938964844,113.72000122070312,113.72000122070312,114.95999908447266,473500.0,113.89510345458984
2019-12-23,115.37000274658203,114.2300033569336,114.93000030517578,115.37000274658203,144300.0,114.30131530761719
2019-12-24,115.63999938964844,114.68000030517578,115.30999755859375,114.7300033569336,63800.0,113.667236328125
2019-12-26,114.86000061035156,113.80000305175781,114.73999786376953,114.81999969482422,110900.0,113.75640869140625
2019-12-27,115.3499984741211,114.1500015258789,115.22000122070312,115.0199966430664,87800.0,113.95455169677734
2019-12-30,115.80000305175781,114.66999816894531,114.94000244140625,115.76000213623047,193000.0,114.68769836425781
2019-12-31,116.19999694824219,115.0199966430664,115.72000122070312,115.62000274658203,310700.0,114.54900360107422
2020-01-02,116.4800033569336,112.93000030517578,115.5,113.68000030517578,362700.0,112.62696075439453
2020-01-03,114.83999633789062,112.80999755859375,112.80999755859375,114.04000091552734,221500.0,112.98363494873047
2020-01-06,114.48999786376953,113.55999755859375,113.66000366210938,114.05000305175781,282400.0,112.99354553222656
2020-01-07,114.01000213623047,112.73999786376953,113.55999755859375,112.91000366210938,234700.0,111.86409759521484
2020-01-08,114.18000030517578,113.08000183105469,113.08000183105469,113.22000122070312,331000.0,112.17122650146484
2020-01-09,115.05999755859375,113.31999969482422,113.7699966430664,114.66000366210938,329100.0,113.597900390625
2020-01-10,116.16999816894531,114.56999969482422,114.66000366210938,115.79000091552734,196800.0,114.71742248535156
2020-01-13,116.55999755859375,115.37000274658203,115.48999786376953,116.19999694824219,248500.0,115.12361907958984
2020-01-14,116.31999969482422,115.13999938964844,116.25,116.12999725341797,160800.0,115.05426788330078
2020-01-15,117.2300033569336,115.9000015258789,116.31999969482422,116.70999908447266,241500.0,115.62889099121094
2020-01-16,118.2699966430664,117.18000030517578,117.20999908447266,118.22000122070312,187300.0,117.12491607666016
2020-01-17,118.61000061035156,117.05999755859375,118.30999755859375,117.31999969482422,190600.0,116.23324584960938
2020-01-21,116.7699966430664,115.3499984741211,116.66000366210938,115.62999725341797,189300.0,114.55889892578125
2020-01-22,116.43000030517578,115.4800033569336,115.69000244140625,115.66999816894531,141800.0,114.59852600097656
2020-01-23,119.0199966430664,114.7699966430664,115.33000183105469,117.37000274658203,301000.0,116.28278350830078
2020-01-24,118.16000366210938,116.62000274658203,117.4000015258789,117.12000274658203,213000.0,116.03510284423828
2020-01-27,117.26000213623047,115.22000122070312,115.54000091552734,116.48999786376953,239100.0,115.41093444824219
2020-01-28,116.58000183105469,115.56999969482422,116.41000366210938,115.97000122070312,178600.0,115.25192260742188
2020-01-29,117.08000183105469,115.52999877929688,115.91000366210938,115.94000244140625,211200.0,115.22211456298828
2020-01-30,117.01000213623047,114.33000183105469,115.0199966430664,116.54000091552734,153200.0,115.81839752197266
2020-01-31,116.38999938964844,115.13999938964844,115.91000366210938,115.51000213623047,300700.0,114.7947769165039
2020-02-03,117.54000091552734,115.51000213623047,115.61000061035156,117.23999786376953,271300.0,116.5140609741211
2020-02-04,118.48999786376953,116.19999694824219,117.79000091552734,116.94999694824219,313700.0,116.2258529663086
2020-02-05,118.29000091552734,116.75,117.13999938964844,117.87000274658203,188100.0,117.14016723632812
2020-02-06,118.94999694824219,117.45999908447266,118.05000305175781,117.52999877929688,247800.0,116.80226135253906
2020-02-07,117.68000030517578,116.22000122070312,117.06999969482422,116.69999694824219,144500.0,115.97740173339844
2020-02-10,117.0999984741211,115.4800033569336,116.41999816894531,115.80000305175781,142600.0,115.08297729492188
2020-02-11,116.88999938964844,115.4000015258789,116.0199966430664,116.05000305175781,197600.0,115.33143615722656
2020-02-12,116.20999908447266,114.30000305175781,116.12999725341797,114.70999908447266,448200.0,113.99972534179688
2020-02-13,116.55000305175781,113.69000244140625,114.58000183105469,116.19999694824219,200400.0,115.48049926757812
2020-02-14,117.75,116.16999816894531,116.5999984741211,116.66999816894531,216800.0,115.94759368896484
2020-02-18,116.62999725341797,115.08000183105469,116.47000122070312,115.26000213623047,271300.0,114.54632568359375
2020-02-19,116.62000274658203,114.72000122070312,115.37000274658203,115.01000213623047,289200.0,114.2978744506836
2020-02-20,115.66999816894531,113.73999786376953,114.61000061035156,114.93000030517578,378400.0,114.2183609008789
2020-02-21,114.6500015258789,109.16000366210938,111.5199966430664,111.9800033569336,720600.0,111.28663635253906
2020-02-24,111.20999908447266,109.16999816894531,110.5,109.20999908447266,447900.0,108.53378295898438
2020-02-25,109.56999969482422,106.70999908447266,109.22000122070312,106.94000244140625,641400.0,106.27783966064453
2020-02-26,106.55999755859375,102.7699966430664,104.0,104.68000030517578,504500.0,104.03182983398438
2020-02-27,104.76000213623047,101.94999694824219,103.4000015258789,102.4000015258789,670500.0,101.76595306396484
2020-02-28,102.20999908447266,99.31999969482422,99.7300033569336,101.06999969482422,690800.0,100.44418334960938
2020-03-02,103.76000213623047,100.80999755859375,101.62000274658203,103.58000183105469,331800.0,102.93864440917969
2020-03-03,105.72000122070312,102.19999694824219,103.79000091552734,102.76000213623047,353300.0,102.12372589111328
2020-03-04,107.62999725341797,104.44000244140625,105.38999938964844,107.44000244140625,294500.0,106.77474212646484
2020-03-05,105.80000305175781,102.63999938964844,105.33999633789062,103.9800033569336,273800.0,103.33617401123047
2020-03-06,107.41000366210938,101.33000183105469,101.61000061035156,107.30000305175781,624000.0,106.63561248779297
2020-03-09,105.0,99.4800033569336,102.73999786376953,101.44999694824219,597100.0,100.82183074951172
2020-03-10,103.98999786376953,99.38999938964844,103.5999984741211,103.98999786376953,522300.0,103.34609985351562
2020-03-11,101.66999816894531,97.91999816894531,101.66999816894531,99.08000183105469,705800.0,98.46650695800781
2020-03-12,96.4000015258789,87.5,92.4800033569336,94.4000015258789,843100.0,93.81549072265625
2020-03-13,99.44000244140625,91.12000274658203,98.08000183105469,96.38999938964844,596000.0,95.79316711425781
2020-03-16,94.4800033569336,87.4000015258789,87.4000015258789,87.87999725341797,667400.0,87.33585357666016
2020-03-17,96.94999694824219,89.4800033569336,89.94999694824219,96.44999694824219,595700.0,95.85279083251953
2020-03-18,96.9800033569336,90.33999633789062,91.69000244140625,96.75,762000.0,96.15093231201172
2020-03-19,101.22000122070312,93.58999633789062,96.48999786376953,98.87999725341797,354700.0,98.26773834228516
2020-03-20,99.9800033569336,89.12999725341797,98.80999755859375,92.51000213623047,727300.0,91.93718719482422
2020-03-23,93.23999786376953,79.83999633789062,92.05999755859375,83.93000030517578,698800.0,83.41031646728516
2020-03-24,88.31999969482422,82.69000244140625,87.2699966430664,88.05999755859375,535600.0,87.51473999023438
2020-03-25,93.66000366210938,86.22000122070312,89.0,90.18000030517578,576200.0,89.62162017822266
2020-03-26,97.33999633789062,90.22000122070312,90.8499984741211,96.19999694824219,447000.0,95.60433197021484
2020-03-27,95.83999633789062,92.0999984741211,94.54000091552734,94.0,482000.0,93.41796875
2020-03-30,100.95999908447266,94.37000274658203,94.97000122070312,100.4800033569336,435400.0,99.85784149169922
2020-03-31,102.75,97.44000244140625,100.5199966430664,99.54000091552734,531000.0,98.92366027832031
2020-04-01,98.68000030517578,95.44000244140625,97.70999908447266,96.20999908447266,296500.0,95.61427307128906
2020-04-02,97.13999938964844,94.12000274658203,95.80999755859375,96.1500015258789,455700.0,95.55464935302734
2020-04-03,97.41999816894531,93.36000061035156,94.87999725341797,94.19000244140625,370300.0,93.6067886352539
2020-04-06,101.18000030517578,97.06999969482422,97.06999969482422,100.76000213623047,503200.0,100.1361083984375
2020-04-07,103.55000305175781,99.22000122070312,103.55000305175781,101.12000274658203,378000.0,100.4938735961914
2020-04-08,105.29000091552734,100.63999938964844,102.6500015258789,104.11000061035156,328500.0,103.46536254882812
2020-04-09,108.02999877929688,104.2300033569336,105.04000091552734,107.2699966430664,399300.0,106.60579681396484
2020-04-13,107.43000030517578,102.30000305175781,106.98999786376953,102.3499984741211,234000.0,101.71626281738281
2020-04-14,105.37000274658203,103.36000061035156,104.55999755859375,104.0199966430664,239700.0,103.37591552734375
2020-04-15,104.19000244140625,100.61000061035156,102.27999877929688,100.93000030517578,441400.0,100.3050537109375
2020-04-16,103.02999877929688,99.68000030517578,103.02999877929688,101.8499984741211,294000.0,101.21935272216797
2020-04-17,105.0199966430664,102.4000015258789,103.86000061035156,102.94000244140625,256200.0,102.30260467529297
2020-04-20,107.94000244140625,101.12999725341797,101.86000061035156,106.94000244140625,856400.0,106.27783966064453
2020-04-21,106.98999786376953,104.12000274658203,105.8499984741211,106.12000274658203,475500.0,105.46292114257812
2020-04-22,107.04000091552734,104.12000274658203,106.98999786376953,106.30000305175781,436400.0,105.64179992675781
2020-04-23,107.31999969482422,104.94999694824219,106.62000274658203,105.0199966430664,347600.0,104.3697280883789
2020-04-24,105.41000366210938,103.08999633789062,105.41000366210938,104.12000274658203,377000.0,103.47530364990234
2020-04-27,114.0999984741211,106.87999725341797,109.33000183105469,112.58000183105469,457700.0,111.88291931152344
2020-04-28,114.66000366210938,110.98999786376953,112.5999984741211,111.18000030517578,274600.0,110.84603881835938
2020-04-29,113.62999725341797,109.81999969482422,112.55999755859375,110.08000183105469,236600.0,109.74934387207031
2020-04-30,110.06999969482422,106.33999633789062,108.98999786376953,107.08000183105469,730600.0,106.75835418701172
2020-05-01,110.55999755859375,104.70999908447266,110.55999755859375,106.13999938964844,506200.0,105.82118225097656
2020-05-04,107.33000183105469,105.08000183105469,105.52999877929688,106.80999755859375,324300.0,106.48916625976562
2020-05-05,107.62999725341797,105.4000015258789,106.77999877929688,105.55999755859375,332500.0,105.242919921875
2020-05-06,107.05000305175781,104.76000213623047,106.7699966430664,104.86000061035156,234000.0,104.5450210571289
2020-05-07,106.88999938964844,105.13999938964844,105.5199966430664,105.47000122070312,285200.0,105.15319061279297
2020-05-08,107.98999786376953,106.55999755859375,106.9800033569336,107.52999877929688,259700.0,107.20700073242188
2020-05-11,107.51000213623047,106.08000183105469,106.66000366210938,106.30999755859375,344000.0,105.99066925048828
2020-05-12,106.43000030517578,103.8499984741211,106.43000030517578,103.94999694824219,233300.0,103.63775634765625
2020-05-13,103.38999938964844,101.6500015258789,103.38999938964844,102.41999816894531,267100.0,102.11235046386719
2020-05-14,102.62000274658203,99.11000061035156,101.01000213623047,102.45999908447266,246200.0,102.15222930908203
2020-05-15,101.69999694824219,100.05000305175781,101.47000122070312,101.5,476400.0,101.19511413574219
2020-05-18,105.1500015258789,102.94999694824219,104.06999969482422,104.1500015258789,304500.0,103.837158203125
2020-05-19,105.75,103.16000366210938,103.79000091552734,103.7300033569336,214700.0,103.41841888427734
2020-05-20,105.5199966430664,104.08000183105469,104.44999694824219,104.41000366210938,146200.0,104.09638214111328
2020-05-21,105.70999908447266,104.44000244140625,104.44000244140625,105.08999633789062,233900.0,104.77433013916016
2020-05-22,105.25,103.70999908447266,104.97000122070312,105.0999984741211,151200.0,104.7843017578125
2020-05-26,110.19000244140625,106.77999877929688,107.33999633789062,109.55000305175781,332200.0,109.22093963623047
2020-05-27,112.6500015258789,110.3499984741211,111.06999969482422,112.55000305175781,290400.0,112.21192932128906
2020-05-28,113.33000183105469,110.94000244140625,113.33000183105469,111.5999984741211,233600.0,111.26477813720703
2020-05-29,111.52999877929688,109.70999908447266,111.0999984741211,111.38999938964844,215300.0,111.05541229248047
2020-06-01,111.87999725341797,110.5999984741211,111.27999877929688,111.41999816894531,277000.0,111.08531951904297
2020-06-02,112.47000122070312,110.94000244140625,111.75,112.06999969482422,224900.0,111.73336791992188
2020-06-03,114.0999984741211,112.69999694824219,112.69999694824219,113.27999877929688,196600.0,112.93972778320312
2020-06-04,113.5,111.0199966430664,113.5,112.13999938964844,182500.0,111.80315399169922
2020-06-05,114.27999877929688,112.91000366210938,113.80000305175781,113.4000015258789,235500.0,113.05937194824219
2020-06-08,114.0,112.29000091552734,112.81999969482422,113.58000183105469,244700.0,113.23883056640625
2020-06-09,113.44999694824219,111.91000366210938,112.77999877929688,112.47000122070312,292100.0,112.13216400146484
2020-06-10,113.0,110.81999969482422,113.0,111.63999938964844,366600.0,111.30465698242188
2020-06-11,110.61000061035156,104.20999908447266,110.0,104.25,376900.0,103.93685913085938
2020-06-12,107.52999877929688,103.08000183105469,106.69000244140625,105.36000061035156,247300.0,105.04352569580078
2020-06-15,106.54000091552734,103.06999969482422,103.44000244140625,105.41000366210938,235900.0,105.09337615966797
2020-06-16,109.08999633789062,106.86000061035156,108.30000305175781,107.38999938964844,252600.0,107.06742095947266
2020-06-17,108.6500015258789,106.37000274658203,108.19000244140625,106.91000366210938,208800.0,106.5888671875
2020-06-18,107.97000122070312,105.97000122070312,106.27999877929688,106.98999786376953,217800.0,106.66862487792969
2020-06-19,107.98999786376953,106.0999984741211,107.20999908447266,107.5999984741211,303700.0,107.27679443359375
2020-06-22,107.66999816894531,105.5,106.94000244140625,107.55000305175781,241900.0,107.22694396972656
2020-06-23,108.45999908447266,106.91999816894531,108.45999908447266,107.44000244140625,228300.0,107.11727905273438
2020-06-24,107.5199966430664,105.8499984741211,106.58000183105469,105.94000244140625,433900.0,105.62178039550781
2020-06-25,107.62999725341797,103.77999877929688,105.41000366210938,107.5999984741211,263600.0,107.27679443359375
2020-06-26,108.69000244140625,106.16999816894531,107.12000274658203,107.72000122070312,924200.0,107.39643096923828
2020-06-29,110.19000244140625,107.88999938964844,108.23999786376953,109.25,189300.0,108.92183685302734
2020-06-30,112.27999877929688,109.12999725341797,109.12999725341797,111.9800033569336,421800.0,111.64363861083984
2020-07-01,112.66999816894531,110.94999694824219,111.91000366210938,112.4800033569336,247900.0,112.14213562011719
2020-07-02,115.01000213623047,113.44000244140625,113.44000244140625,114.97000122070312,271400.0,114.6246566772461
2020-07-06,116.66000366210938,114.18000030517578,115.98999786376953,115.26000213623047,330900.0,114.91378784179688
2020-07-07,116.0,114.18000030517578,114.63999938964844,115.1500015258789,346500.0,114.80411529541016
2020-07-08,115.75,112.58999633789062,114.79000091552734,112.93000030517578,205900.0,112.59078216552734
2020-07-09,114.13999938964844,111.41000366210938,113.16000366210938,113.76000213623047,307200.0,113.41828918457031
2020-07-10,115.16999816894531,112.4000015258789,114.16999816894531,114.94999694824219,244500.0,114.6047134399414
2020-07-13,116.2699966430664,113.2699966430664,114.95999908447266,113.43000030517578,289000.0,113.08927917480469
2020-07-14,116.5,113.69000244140625,113.76000213623047,116.30999755859375,193600.0,115.96062469482422
2020-07-15,118.29000091552734,116.54000091552734,117.44000244140625,117.9000015258789,326900.0,117.54585266113281
2020-07-16,118.48999786376953,116.80000305175781,118.04000091552734,117.23999786376953,252900.0,116.88783264160156
2020-07-17,119.70999908447266,117.33999633789062,118.0,119.4000015258789,249000.0,119.04135131835938
2020-07-20,119.75,118.2699966430664,119.4000015258789,119.29000091552734,183200.0,118.93167877197266
2020-07-21,119.87000274658203,117.66999816894531,119.58000183105469,118.18000030517578,394300.0,117.82501220703125
2020-07-22,118.9800033569336,117.41000366210938,118.25,118.5,414600.0,118.14405059814453
2020-07-23,119.2300033569336,118.08999633789062,118.38999938964844,118.44000244140625,286700.0,118.08423614501953
2020-07-24,119.79000091552734,118.37999725341797,119.0,118.8499984741211,244700.0,118.49299621582031
2020-07-27,120.44999694824219,118.5,118.83000183105469,119.8499984741211,281800.0,119.48999786376953
2020-07-28,119.80999755859375,117.77999877929688,119.80999755859375,118.05000305175781,208600.0,118.05000305175781
2020-07-29,119.41000366210938,117.33000183105469,118.72000122070312,118.80999755859375,251200.0,118.80999755859375
2020-07-30,118.91000366210938,116.69999694824219,117.75,117.91000366210938,359800.0,117.91000366210938
2020-07-31,117.9000015258789,111.22000122070312,115.0,115.19999694824219,668100.0,115.19999694824219
2020-08-03,119.68000030517578,114.8499984741211,116.8499984741211,118.66000366210938,292900.0,118.66000366210938
2020-08-04,120.18000030517578,118.22000122070312,118.94999694824219,118.62000274658203,233100.0,118.62000274658203
2020-08-05,120.66999816894531,118.22000122070312,119.55999755859375,118.36000061035156,164700.0,118.36000061035156
2020-08-06,120.11000061035156,116.68000030517578,118.81999969482422,117.66000366210938,246500.0,117.66000366210938
2020-08-07,119.37000274658203,116.77999877929688,117.06999969482422,119.25,202300.0,119.25
2020-08-10,119.58000183105469,116.9000015258789,119.58000183105469,117.0,204700.0,117.0
2020-08-11,119.3499984741211,116.52999877929688,118.0199966430664,116.73999786376953,214100.0,116.73999786376953
2020-08-12,118.56999969482422,116.75,116.91999816894531,118.08999633789062,171800.0,118.08999633789062
2020-08-13,119.47000122070312,117.23999786376953,117.23999786376953,118.5199966430664,213800.0,118.5199966430664
2020-08-14,119.63999938964844,117.69999694824219,117.87999725341797,118.48999786376953,134600.0,118.48999786376953
2020-08-17,119.91999816894531,118.01000213623047,119.13999938964844,118.25,160500.0,118.25
2020-08-18,118.63999938964844,116.7699966430664,117.91000366210938,117.87999725341797,171500.0,117.87999725341797
2020-08-19,119.37000274658203,117.31999969482422,118.69999694824219,117.69000244140625,145600.0,117.69000244140625
2020-08-20,118.12999725341797,116.5999984741211,117.05999755859375,117.55000305175781,159400.0,117.55000305175781
2020-08-21,118.3499984741211,116.4000015258789,117.12000274658203,117.80000305175781,199200.0,117.80000305175781
2020-08-24,119.76000213623047,118.19999694824219,118.19999694824219,119.11000061035156,224000.0,119.11000061035156
2020-08-25,119.54000091552734,117.93000030517578,119.54000091552734,118.12999725341797,114400.0,118.12999725341797
2020-08-26,119.0,117.55999755859375,117.98999786376953,118.5999984741211,120000.0,118.5999984741211
2020-08-27,120.62000274658203,118.5,118.62999725341797,120.05000305175781,209800.0,120.05000305175781
2020-08-28,119.69999694824219,118.0,119.69999694824219,118.12999725341797,295200.0,118.12999725341797
2020-08-31,119.16000366210938,117.77999877929688,118.58000183105469,118.38999938964844,182500.0,118.38999938964844
2020-09-01,119.63999938964844,117.94000244140625,117.94000244140625,119.5,133900.0,119.5
2020-09-02,122.44000244140625,118.97000122070312,119.75,122.26000213623047,153800.0,122.26000213623047
2020-09-03,122.27999877929688,118.5,122.27999877929688,119.16999816894531,227200.0,119.16999816894531
2020-09-04,120.30000305175781,116.48999786376953,120.04000091552734,118.72000122070312,224200.0,118.72000122070312
2020-09-08,118.12999725341797,116.04000091552734,118.12999725341797,116.05999755859375,164600.0,116.05999755859375
2020-09-09,118.62999725341797,116.63999938964844,116.63999938964844,117.88999938964844,154000.0,117.88999938964844
2020-09-10,118.91000366210938,116.70999908447266,118.16999816894531,117.19000244140625,253500.0,117.19000244140625
2020-09-11,118.70999908447266,117.12999725341797,117.87999725341797,118.36000061035156,124600.0,118.36000061035156
2020-09-14,120.05999755859375,118.47000122070312,119.37000274658203,119.08000183105469,129000.0,119.08000183105469
2020-09-15,119.80000305175781,118.12000274658203,119.44000244140625,118.33000183105469,125600.0,118.33000183105469
2020-09-16,119.58000183105469,117.56999969482422,119.58000183105469,117.7699966430664,232000.0,117.7699966430664
2020-09-17,117.23999786376953,115.08000183105469,116.5,115.95999908447266,354500.0,115.95999908447266
2020-09-18,116.75,114.2300033569336,116.58000183105469,115.04000091552734,555700.0,115.04000091552734
2020-09-21,114.04000091552734,111.81999969482422,113.5999984741211,113.44999694824219,251500.0,113.44999694824219
2020-09-22,114.66999816894531,113.55999755859375,113.97000122070312,114.33000183105469,292400.0,114.33000183105469
2020-09-23,114.52999877929688,111.70999908447266,114.19999694824219,112.13999938964844,172300.0,112.13999938964844
2020-09-24,113.16999816894531,111.16000366210938,111.9000015258789,112.26000213623047,274300.0,112.26000213623047
2020-09-25,112.58000183105469,111.45999908447266,111.45999908447266,112.0999984741211,254100.0,112.0999984741211
2020-09-28,114.22000122070312,112.04000091552734,113.16999816894531,112.36000061035156,230000.0,112.36000061035156
2020-09-29,113.3499984741211,111.75,112.05999755859375,112.62000274658203,230000.0,112.62000274658203
2020-09-30,114.05999755859375,112.5,113.2699966430664,113.19999694824219,200500.0,113.19999694824219
2020-10-01,114.97000122070312,113.13999938964844,113.44999694824219,113.69999694824219,166000.0,113.69999694824219
2020-10-02,114.18000030517578,112.30999755859375,112.30999755859375,112.8499984741211,166800.0,112.8499984741211
